 LCModel (Version 6.3-1B) Copyright: S.W. Provencher.          Ref.: Magn. Reson. Med. 30:672-679 (1993).                
 Anon (XXXXXX) Series/Acq=11/1 (2015.XX.XX XX:XX) svs_liver_voxel1  TR/TE/NS=2000/35/8,  8.000E+00mL (X
 X, 75kg) Alex Proton  (BWH) _nc_14
 Data of: Center for Clinical Spectroscopy, Brigham and Women’s Hospital, Harvard Medical School
 XX-XXX-2015  XX:XX
 42 lines in following concentration table = NCONC+1
    Conc.  %SD /L16+L0  Metabolite                                         
    0.143   1%   1.000 L16+L09+L13                                         
    0.137   2%   0.958 Lip16+Lip13                                         
 1.68E-02  10%   0.118 L28+L23+L21                                         
    0.125   3%   0.878 Lip13                                               
 5.93E-03  36% 4.2E-02 Lip09                                               
 1.15E-02  15% 8.1E-02 Lip16                                               
 1.45E-02   7%   0.102 Lip21                                               
 1.18E-03  68% 8.3E-03 Lip23                                               
 1.13E-03  56% 8.0E-03 Lip28                                               
 6.93E-03  10% 4.9E-02 Cho                                                 
 4.70E-04 178% 3.3E-03 Glycg                                               
   5 lines in following misc. output table
  FWHM = 0.297 ppm    S/N =  24                                            
  Data shift =-0.019 ppm                                                   
  Ph:  36 deg       0.3 deg/ppm                                            
  alphaB,S = 1.2E+02,   2.2E-02                                            
    6 spline knots.   Ns = 0(1)                                            
  821 points on ppm-axis = NY
      4.000000     3.995243     3.990487     3.985730     3.980973     3.976217     3.971460     3.966703     3.961946     3.957190
      3.952433     3.947676     3.942920     3.938163     3.933406     3.928650     3.923893     3.919136     3.914380     3.909623
      3.904866     3.900110     3.895353     3.890596     3.885839     3.881083     3.876326     3.871569     3.866813     3.862056
      3.857299     3.852543     3.847786     3.843029     3.838273     3.833516     3.828759     3.824003     3.819246     3.814489
      3.809732     3.804976     3.800219     3.795462     3.790706     3.785949     3.781192     3.776436     3.771679     3.766922
      3.762166     3.757409     3.752652     3.747895     3.743139     3.738382     3.733625     3.728869     3.724112     3.719355
      3.714599     3.709842     3.705085     3.700329     3.695572     3.690815     3.686059     3.681302     3.676545     3.671788
      3.667032     3.662275     3.657518     3.652762     3.648005     3.643248     3.638492     3.633735     3.628978     3.624222
      3.619465     3.614708     3.609951     3.605195     3.600438     3.595681     3.590925     3.586168     3.581411     3.576655
      3.571898     3.567141     3.562385     3.557628     3.552871     3.548115     3.543358     3.538601     3.533844     3.529088
      3.524331     3.519574     3.514818     3.510061     3.505304     3.500548     3.495791     3.491034     3.486278     3.481521
      3.476764     3.472008     3.467251     3.462494     3.457737     3.452981     3.448224     3.443467     3.438711     3.433954
      3.429197     3.424441     3.419684     3.414927     3.410171     3.405414     3.400657     3.395900     3.391144     3.386387
      3.381630     3.376874     3.372117     3.367360     3.362604     3.357847     3.353090     3.348334     3.343577     3.338820
      3.334064     3.329307     3.324550     3.319793     3.315037     3.310280     3.305523     3.300767     3.296010     3.291253
      3.286497     3.281740     3.276983     3.272227     3.267470     3.262713     3.257957     3.253200     3.248443     3.243686
      3.238930     3.234173     3.229416     3.224660     3.219903     3.215146     3.210390     3.205633     3.200876     3.196120
      3.191363     3.186606     3.181849     3.177093     3.172336     3.167579     3.162823     3.158066     3.153309     3.148553
      3.143796     3.139039     3.134283     3.129526     3.124769     3.120013     3.115256     3.110499     3.105742     3.100986
      3.096229     3.091472     3.086716     3.081959     3.077202     3.072446     3.067689     3.062932     3.058176     3.053419
      3.048662     3.043905     3.039149     3.034392     3.029635     3.024879     3.020122     3.015365     3.010609     3.005852
      3.001095     2.996339     2.991582     2.986825     2.982069     2.977312     2.972555     2.967798     2.963042     2.958285
      2.953528     2.948772     2.944015     2.939258     2.934502     2.929745     2.924988     2.920232     2.915475     2.910718
      2.905962     2.901205     2.896448     2.891691     2.886935     2.882178     2.877421     2.872665     2.867908     2.863151
      2.858395     2.853638     2.848881     2.844125     2.839368     2.834611     2.829854     2.825098     2.820341     2.815584
      2.810828     2.806071     2.801314     2.796558     2.791801     2.787044     2.782288     2.777531     2.772774     2.768018
      2.763261     2.758504     2.753747     2.748991     2.744234     2.739477     2.734721     2.729964     2.725207     2.720451
      2.715694     2.710937     2.706181     2.701424     2.696667     2.691911     2.687154     2.682397     2.677640     2.672884
      2.668127     2.663370     2.658614     2.653857     2.649100     2.644344     2.639587     2.634830     2.630074     2.625317
      2.620560     2.615803     2.611047     2.606290     2.601533     2.596777     2.592020     2.587263     2.582507     2.577750
      2.572993     2.568237     2.563480     2.558723     2.553967     2.549210     2.544453     2.539696     2.534940     2.530183
      2.525426     2.520670     2.515913     2.511156     2.506400     2.501643     2.496886     2.492130     2.487373     2.482616
      2.477859     2.473103     2.468346     2.463589     2.458833     2.454076     2.449319     2.444563     2.439806     2.435049
      2.430293     2.425536     2.420779     2.416023     2.411266     2.406509     2.401752     2.396996     2.392239     2.387482
      2.382726     2.377969     2.373212     2.368456     2.363699     2.358942     2.354186     2.349429     2.344672     2.339916
      2.335159     2.330402     2.325645     2.320889     2.316132     2.311375     2.306619     2.301862     2.297105     2.292349
      2.287592     2.282835     2.278079     2.273322     2.268565     2.263808     2.259052     2.254295     2.249538     2.244782
      2.240025     2.235268     2.230512     2.225755     2.220998     2.216242     2.211485     2.206728     2.201972     2.197215
      2.192458     2.187701     2.182945     2.178188     2.173431     2.168675     2.163918     2.159161     2.154405     2.149648
      2.144891     2.140135     2.135378     2.130621     2.125865     2.121108     2.116351     2.111594     2.106838     2.102081
      2.097324     2.092568     2.087811     2.083054     2.078298     2.073541     2.068784     2.064028     2.059271     2.054514
      2.049757     2.045001     2.040244     2.035487     2.030731     2.025974     2.021217     2.016461     2.011704     2.006947
      2.002191     1.997434     1.992677     1.987921     1.983164     1.978407     1.973650     1.968894     1.964137     1.959380
      1.954624     1.949867     1.945110     1.940354     1.935597     1.930840     1.926084     1.921327     1.916570     1.911813
      1.907057     1.902300     1.897543     1.892787     1.888030     1.883273     1.878517     1.873760     1.869003     1.864247
      1.859490     1.854733     1.849977     1.845220     1.840463     1.835706     1.830950     1.826193     1.821436     1.816680
      1.811923     1.807166     1.802410     1.797653     1.792896     1.788140     1.783383     1.778626     1.773870     1.769113
      1.764356     1.759599     1.754843     1.750086     1.745329     1.740573     1.735816     1.731059     1.726303     1.721546
      1.716789     1.712033     1.707276     1.702519     1.697762     1.693006     1.688249     1.683492     1.678736     1.673979
      1.669222     1.664466     1.659709     1.654952     1.650196     1.645439     1.640682     1.635926     1.631169     1.626412
      1.621655     1.616899     1.612142     1.607385     1.602629     1.597872     1.593115     1.588359     1.583602     1.578845
      1.574089     1.569332     1.564575     1.559819     1.555062     1.550305     1.545548     1.540792     1.536035     1.531278
      1.526522     1.521765     1.517008     1.512252     1.507495     1.502738     1.497982     1.493225     1.488468     1.483711
      1.478955     1.474198     1.469441     1.464685     1.459928     1.455171     1.450415     1.445658     1.440901     1.436145
      1.431388     1.426631     1.421875     1.417118     1.412361     1.407604     1.402848     1.398091     1.393334     1.388578
      1.383821     1.379064     1.374308     1.369551     1.364794     1.360038     1.355281     1.350524     1.345767     1.341011
      1.336254     1.331497     1.326741     1.321984     1.317227     1.312471     1.307714     1.302957     1.298201     1.293444
      1.288687     1.283931     1.279174     1.274417     1.269660     1.264904     1.260147     1.255390     1.250634     1.245877
      1.241120     1.236364     1.231607     1.226850     1.222094     1.217337     1.212580     1.207824     1.203067     1.198310
      1.193553     1.188797     1.184040     1.179283     1.174527     1.169770     1.165013     1.160257     1.155500     1.150743
      1.145987     1.141230     1.136473     1.131716     1.126960     1.122203     1.117446     1.112690     1.107933     1.103176
      1.098420     1.093663     1.088906     1.084150     1.079393     1.074636     1.069880     1.065123     1.060366     1.055609
      1.050853     1.046096     1.041339     1.036583     1.031826     1.027069     1.022313     1.017556     1.012799     1.008043
      1.003286     0.998529     0.993772     0.989016     0.984259     0.979502     0.974745     0.969989     0.965232     0.960475
      0.955718     0.950962     0.946205     0.941448     0.936691     0.931935     0.927178     0.922421     0.917664     0.912908
      0.908151     0.903394     0.898637     0.893881     0.889124     0.884367     0.879610     0.874854     0.870097     0.865340
      0.860583     0.855827     0.851070     0.846313     0.841556     0.836800     0.832043     0.827286     0.822529     0.817773
      0.813016     0.808259     0.803502     0.798746     0.793989     0.789232     0.784475     0.779719     0.774962     0.770205
      0.765448     0.760692     0.755935     0.751178     0.746421     0.741665     0.736908     0.732151     0.727394     0.722638
      0.717881     0.713124     0.708367     0.703611     0.698854     0.694097     0.689340     0.684584     0.679827     0.675070
      0.670313     0.665557     0.660800     0.656043     0.651286     0.646530     0.641773     0.637016     0.632259     0.627503
      0.622746     0.617989     0.613232     0.608476     0.603719     0.598962     0.594205     0.589449     0.584692     0.579935
      0.575179     0.570422     0.565665     0.560908     0.556152     0.551395     0.546638     0.541881     0.537125     0.532368
      0.527611     0.522854     0.518098     0.513341     0.508584     0.503827     0.499071     0.494314     0.489557     0.484800
      0.480044     0.475287     0.470530     0.465774     0.461017     0.456260     0.451503     0.446747     0.441990     0.437233
      0.432476     0.427720     0.422963     0.418206     0.413450     0.408693     0.403936     0.399179     0.394423     0.389666
      0.384909     0.380153     0.375396     0.370639     0.365882     0.361126     0.356369     0.351612     0.346856     0.342099
      0.337342     0.332585     0.327829     0.323072     0.318315     0.313559     0.308802     0.304045     0.299288     0.294532
      0.289775     0.285018     0.280261     0.275505     0.270748     0.265991     0.261235     0.256478     0.251721     0.246964
      0.242208     0.237451     0.232694     0.227938     0.223181     0.218424     0.213667     0.208911     0.204154     0.199397
      0.194640     0.189884     0.185127     0.180370     0.175613     0.170857     0.166100     0.161343     0.156586     0.151830
      0.147073     0.142316     0.137560     0.132803     0.128046     0.123289     0.118533     0.113776     0.109019     0.104262
      0.099506
 NY phased data points follow
   1.06239E-01  1.09405E-01  1.11440E-01  1.16427E-01  1.19260E-01  1.05350E-01  1.15912E-01  1.14146E-01  1.12359E-01  1.14553E-01
   1.11182E-01  1.01744E-01  1.09953E-01  1.12550E-01  1.01308E-01  1.07038E-01  1.03098E-01  1.03530E-01  1.05600E-01  1.14404E-01
   1.10780E-01  1.20280E-01  1.10609E-01  1.10336E-01  1.03016E-01  1.18983E-01  1.12262E-01  1.09772E-01  1.01562E-01  1.14035E-01
   1.08986E-01  1.11203E-01  9.95499E-02  1.11245E-01  1.04674E-01  1.10769E-01  1.10584E-01  1.09819E-01  1.06504E-01  1.13885E-01
   1.04494E-01  1.13605E-01  1.07629E-01  1.08677E-01  1.03953E-01  1.20743E-01  1.13886E-01  1.18610E-01  1.09018E-01  1.19537E-01
   9.97976E-02  1.16690E-01  1.09095E-01  1.22719E-01  1.15884E-01  1.11165E-01  1.11851E-01  1.24184E-01  1.06351E-01  1.16878E-01
   1.08567E-01  1.12051E-01  1.06774E-01  1.10799E-01  1.09864E-01  1.20434E-01  1.12902E-01  1.25714E-01  1.24915E-01  1.17085E-01
   1.09314E-01  1.21914E-01  1.08896E-01  1.21420E-01  1.10882E-01  1.17719E-01  1.12433E-01  1.15690E-01  1.06982E-01  1.08232E-01
   1.13056E-01  1.03822E-01  1.14788E-01  1.20218E-01  1.07118E-01  1.11538E-01  1.11962E-01  1.19552E-01  1.04409E-01  1.21300E-01
   1.11375E-01  1.13975E-01  1.10857E-01  1.08762E-01  1.10176E-01  1.14803E-01  1.15676E-01  1.25864E-01  1.27291E-01  1.15218E-01
   1.16087E-01  1.13088E-01  1.25967E-01  1.23560E-01  1.21899E-01  1.18557E-01  1.09072E-01  1.21067E-01  1.16245E-01  1.12262E-01
   1.11864E-01  1.11752E-01  1.06517E-01  1.14814E-01  1.11507E-01  1.13443E-01  1.09463E-01  1.12926E-01  1.14909E-01  1.17384E-01
   1.15315E-01  1.15004E-01  1.22756E-01  1.22322E-01  1.20826E-01  1.16498E-01  1.19797E-01  1.23287E-01  1.21811E-01  1.20885E-01
   1.13774E-01  1.17468E-01  1.21618E-01  1.17584E-01  1.26030E-01  1.20493E-01  1.13469E-01  1.16255E-01  1.18873E-01  1.15192E-01
   1.11064E-01  1.16622E-01  1.22175E-01  1.17131E-01  1.32585E-01  1.04551E-01  1.25852E-01  1.26367E-01  1.24933E-01  1.24099E-01
   1.24657E-01  1.22554E-01  1.34610E-01  1.26947E-01  1.23237E-01  1.24502E-01  1.19882E-01  1.18077E-01  1.36431E-01  1.21679E-01
   1.29195E-01  1.26288E-01  1.24486E-01  1.28679E-01  1.31349E-01  1.28864E-01  1.34298E-01  1.27815E-01  1.30890E-01  1.33815E-01
   1.47639E-01  1.40933E-01  1.34049E-01  1.41203E-01  1.35880E-01  1.35235E-01  1.45983E-01  1.27589E-01  1.41580E-01  1.35727E-01
   1.38219E-01  1.34166E-01  1.32696E-01  1.36423E-01  1.39771E-01  1.38349E-01  1.39085E-01  1.37322E-01  1.29170E-01  1.41238E-01
   1.38461E-01  1.37537E-01  1.33409E-01  1.39466E-01  1.26538E-01  1.35404E-01  1.30639E-01  1.32821E-01  1.27785E-01  1.33741E-01
   1.29693E-01  1.27554E-01  1.30265E-01  1.25106E-01  1.30692E-01  1.30987E-01  1.33594E-01  1.20789E-01  1.29701E-01  1.25109E-01
   1.28135E-01  1.30185E-01  1.30055E-01  1.22918E-01  1.33917E-01  1.35452E-01  1.31438E-01  1.21591E-01  1.22047E-01  1.33422E-01
   1.22890E-01  1.35083E-01  1.27546E-01  1.34107E-01  1.25310E-01  1.23662E-01  1.17342E-01  1.11825E-01  1.16435E-01  1.27613E-01
   1.19368E-01  1.21883E-01  1.19188E-01  1.18380E-01  1.21059E-01  1.17692E-01  1.29689E-01  1.26781E-01  1.23973E-01  1.23024E-01
   1.20109E-01  1.30975E-01  1.25482E-01  1.29860E-01  1.27919E-01  1.22263E-01  1.25309E-01  1.23275E-01  1.17339E-01  1.26962E-01
   1.10559E-01  1.15389E-01  1.22036E-01  1.23559E-01  1.15204E-01  1.23698E-01  1.17459E-01  1.27476E-01  1.19492E-01  1.24528E-01
   1.28208E-01  1.25491E-01  1.23999E-01  1.24924E-01  1.15311E-01  1.21577E-01  1.13449E-01  1.22783E-01  1.24552E-01  1.25492E-01
   1.27988E-01  1.21361E-01  1.17957E-01  1.27743E-01  1.22052E-01  1.22717E-01  1.15069E-01  1.22945E-01  1.21730E-01  1.14230E-01
   1.19474E-01  1.25205E-01  1.17032E-01  1.23909E-01  1.20204E-01  1.28711E-01  1.11301E-01  1.18719E-01  1.19159E-01  1.15351E-01
   1.26626E-01  1.20285E-01  1.19309E-01  1.17435E-01  1.15580E-01  1.24539E-01  1.13229E-01  1.22909E-01  1.17758E-01  1.25919E-01
   1.12554E-01  1.22041E-01  1.15487E-01  1.20228E-01  1.17107E-01  1.21424E-01  1.20071E-01  1.18897E-01  1.20763E-01  1.26601E-01
   1.14667E-01  1.20064E-01  1.21547E-01  1.18579E-01  1.23304E-01  1.22468E-01  1.19991E-01  1.19005E-01  1.17342E-01  1.17613E-01
   1.19789E-01  1.24951E-01  1.23516E-01  1.28741E-01  1.27118E-01  1.29902E-01  1.15349E-01  1.18046E-01  1.23039E-01  1.06590E-01
   1.16105E-01  1.20042E-01  1.16317E-01  1.20765E-01  1.19419E-01  1.24437E-01  1.22399E-01  1.28668E-01  1.16044E-01  1.18655E-01
   1.29168E-01  1.20689E-01  1.28508E-01  1.30193E-01  1.26368E-01  1.32239E-01  1.24577E-01  1.29008E-01  1.33972E-01  1.36436E-01
   1.32544E-01  1.32829E-01  1.28892E-01  1.35316E-01  1.31220E-01  1.27738E-01  1.29625E-01  1.33843E-01  1.39044E-01  1.34547E-01
   1.31160E-01  1.28942E-01  1.38767E-01  1.32809E-01  1.34443E-01  1.46953E-01  1.37149E-01  1.30606E-01  1.41793E-01  1.38653E-01
   1.37295E-01  1.45031E-01  1.45694E-01  1.42281E-01  1.39365E-01  1.40547E-01  1.51075E-01  1.32691E-01  1.40270E-01  1.45410E-01
   1.46556E-01  1.47655E-01  1.46145E-01  1.41169E-01  1.52563E-01  1.36009E-01  1.48202E-01  1.47820E-01  1.54966E-01  1.44160E-01
   1.56651E-01  1.41544E-01  1.57791E-01  1.50216E-01  1.47138E-01  1.42067E-01  1.51114E-01  1.44004E-01  1.49056E-01  1.44550E-01
   1.51271E-01  1.44505E-01  1.52358E-01  1.58056E-01  1.54375E-01  1.58528E-01  1.60051E-01  1.65285E-01  1.64715E-01  1.66192E-01
   1.63985E-01  1.57544E-01  1.70394E-01  1.59497E-01  1.60214E-01  1.63307E-01  1.64041E-01  1.62157E-01  1.66444E-01  1.56093E-01
   1.57593E-01  1.59886E-01  1.52288E-01  1.52355E-01  1.55458E-01  1.56841E-01  1.68035E-01  1.63455E-01  1.60131E-01  1.64238E-01
   1.63093E-01  1.61169E-01  1.55465E-01  1.47809E-01  1.60335E-01  1.56945E-01  1.51988E-01  1.57417E-01  1.66678E-01  1.63685E-01
   1.65967E-01  1.68593E-01  1.70593E-01  1.50223E-01  1.64340E-01  1.60718E-01  1.57383E-01  1.67184E-01  1.58013E-01  1.69415E-01
   1.65671E-01  1.63245E-01  1.65580E-01  1.70120E-01  1.60385E-01  1.56629E-01  1.62573E-01  1.55772E-01  1.65882E-01  1.58333E-01
   1.70904E-01  1.72734E-01  1.67688E-01  1.57918E-01  1.60151E-01  1.56098E-01  1.58147E-01  1.54251E-01  1.58037E-01  1.58861E-01
   1.59493E-01  1.56032E-01  1.52968E-01  1.64641E-01  1.61527E-01  1.68005E-01  1.64093E-01  1.58281E-01  1.66130E-01  1.60512E-01
   1.64756E-01  1.73449E-01  1.68062E-01  1.63692E-01  1.72089E-01  1.77124E-01  1.70247E-01  1.73422E-01  1.76379E-01  1.66011E-01
   1.75003E-01  1.70950E-01  1.75974E-01  1.85657E-01  1.81649E-01  1.82425E-01  1.78632E-01  1.94492E-01  1.87342E-01  1.86211E-01
   1.84296E-01  1.89000E-01  1.84301E-01  1.94860E-01  1.94781E-01  1.97334E-01  1.97230E-01  1.99716E-01  1.89738E-01  2.04695E-01
   1.99759E-01  2.04741E-01  1.98820E-01  2.06408E-01  2.02664E-01  2.07165E-01  2.06887E-01  2.15460E-01  2.25040E-01  2.29627E-01
   2.26353E-01  2.32970E-01  2.36648E-01  2.45257E-01  2.35393E-01  2.52708E-01  2.47408E-01  2.56661E-01  2.51118E-01  2.61997E-01
   2.50836E-01  2.68031E-01  2.67385E-01  2.70099E-01  2.74377E-01  2.87074E-01  2.90307E-01  2.94458E-01  2.95696E-01  3.14155E-01
   3.11520E-01  3.24157E-01  3.21700E-01  3.31499E-01  3.32905E-01  3.39815E-01  3.42346E-01  3.49819E-01  3.57264E-01  3.53724E-01
   3.56586E-01  3.68191E-01  3.74594E-01  3.76666E-01  3.85121E-01  3.93076E-01  3.96440E-01  4.09569E-01  3.97739E-01  4.15261E-01
   4.08204E-01  4.17962E-01  4.22246E-01  4.38523E-01  4.31033E-01  4.39919E-01  4.38349E-01  4.40647E-01  4.42739E-01  4.44220E-01
   4.51340E-01  4.47260E-01  4.44708E-01  4.59749E-01  4.50449E-01  4.58074E-01  4.54961E-01  4.46311E-01  4.49506E-01  4.41765E-01
   4.47995E-01  4.44851E-01  4.42884E-01  4.38034E-01  4.32072E-01  4.28486E-01  4.25195E-01  4.32394E-01  4.22065E-01  4.16398E-01
   4.00438E-01  3.89715E-01  3.81116E-01  3.69501E-01  3.65735E-01  3.50881E-01  3.45295E-01  3.51381E-01  3.37820E-01  3.38084E-01
   3.25954E-01  3.22065E-01  3.15737E-01  3.09538E-01  3.06889E-01  2.96413E-01  2.92155E-01  2.73304E-01  2.70151E-01  2.70002E-01
   2.65503E-01  2.54100E-01  2.59755E-01  2.47639E-01  2.51306E-01  2.37160E-01  2.27074E-01  2.23257E-01  2.23051E-01  2.30357E-01
   2.10388E-01  2.17086E-01  2.14121E-01  1.96253E-01  1.89955E-01  1.93915E-01  1.95583E-01  1.91564E-01  1.96879E-01  1.82344E-01
   1.90385E-01  1.87222E-01  1.89203E-01  1.83748E-01  1.78651E-01  1.82277E-01  1.88547E-01  1.95578E-01  1.91195E-01  1.93442E-01
   1.99193E-01  1.93160E-01  1.95249E-01  1.87807E-01  1.91271E-01  1.85789E-01  1.86058E-01  1.87468E-01  1.94759E-01  1.70987E-01
   1.69018E-01  1.75439E-01  1.76387E-01  1.67910E-01  1.64542E-01  1.71592E-01  1.70436E-01  1.67973E-01  1.75975E-01  1.70194E-01
   1.79774E-01  1.72587E-01  1.77398E-01  1.70168E-01  1.79058E-01  1.72746E-01  1.74428E-01  1.63054E-01  1.64935E-01  1.61840E-01
   1.62957E-01  1.42033E-01  1.55107E-01  1.45376E-01  1.37951E-01  1.43041E-01  1.35281E-01  1.26465E-01  1.41587E-01  1.41764E-01
   1.50710E-01  1.54279E-01  1.43164E-01  1.33285E-01  1.39610E-01  1.38305E-01  1.50455E-01  1.35349E-01  1.45056E-01  1.40457E-01
   1.35260E-01  1.35346E-01  1.41940E-01  1.42896E-01  1.39028E-01  1.31194E-01  1.40797E-01  1.24718E-01  1.25020E-01  1.23637E-01
   1.33862E-01  1.24947E-01  1.34919E-01  1.28887E-01  1.36280E-01  1.32392E-01  1.38066E-01  1.30727E-01  1.32748E-01  1.36389E-01
   1.36227E-01  1.24813E-01  1.41476E-01  1.28951E-01  1.38243E-01  1.44226E-01  1.46904E-01  1.40500E-01  1.45740E-01  1.32269E-01
   1.26945E-01  1.24240E-01  1.25443E-01  1.19175E-01  1.34929E-01  1.30809E-01  1.33347E-01  1.28603E-01  1.36836E-01  1.29051E-01
   1.43547E-01  1.35903E-01  1.43859E-01  1.43684E-01  1.41230E-01  1.42479E-01  1.34512E-01  1.33002E-01  1.36899E-01  1.32872E-01
   1.36972E-01  1.24699E-01  1.26871E-01  1.27009E-01  1.27347E-01  1.32159E-01  1.27633E-01  1.36965E-01  1.48395E-01  1.22707E-01
   1.36345E-01  1.40170E-01  1.42669E-01  1.36212E-01  1.39939E-01  1.35157E-01  1.34891E-01  1.41966E-01  1.42227E-01  1.29446E-01
   1.39665E-01  1.33759E-01  1.36664E-01  1.23811E-01  1.23500E-01  1.16521E-01  1.25352E-01  1.17094E-01  1.19882E-01  1.21212E-01
   1.14535E-01  1.11370E-01  1.22326E-01  1.17260E-01  1.22653E-01  1.25263E-01  1.24063E-01  1.26587E-01  1.34107E-01  1.27937E-01
   1.25565E-01  1.29733E-01  1.21249E-01  1.34516E-01  1.39479E-01  1.32923E-01  1.32753E-01  1.25164E-01  1.18492E-01  1.31390E-01
   1.16565E-01  1.22953E-01  1.24677E-01  1.19258E-01  1.25870E-01  1.36790E-01  1.26013E-01  1.33790E-01  1.26704E-01  1.12546E-01
   1.18348E-01  1.17928E-01  1.15733E-01  1.28706E-01  1.23006E-01  1.25173E-01  1.24844E-01  1.34951E-01  1.32209E-01  1.29741E-01
   1.15668E-01  1.26668E-01  1.23091E-01  1.21289E-01  1.17928E-01  1.33099E-01  1.19684E-01  1.21020E-01  1.20563E-01  1.25412E-01
   1.15632E-01
 NY points of the fit to the data follow
   1.09609E-01  1.09646E-01  1.09683E-01  1.09720E-01  1.09757E-01  1.09795E-01  1.09832E-01  1.09870E-01  1.09908E-01  1.09947E-01
   1.09985E-01  1.10024E-01  1.10064E-01  1.10103E-01  1.10143E-01  1.10184E-01  1.10225E-01  1.10267E-01  1.10309E-01  1.10352E-01
   1.10395E-01  1.10440E-01  1.10485E-01  1.10531E-01  1.10579E-01  1.10627E-01  1.10677E-01  1.10728E-01  1.10781E-01  1.10835E-01
   1.10891E-01  1.10950E-01  1.11010E-01  1.11072E-01  1.11137E-01  1.11205E-01  1.11275E-01  1.11348E-01  1.11423E-01  1.11502E-01
   1.11583E-01  1.11668E-01  1.11756E-01  1.11846E-01  1.11940E-01  1.12036E-01  1.12135E-01  1.12236E-01  1.12339E-01  1.12443E-01
   1.12549E-01  1.12656E-01  1.12763E-01  1.12870E-01  1.12976E-01  1.13081E-01  1.13183E-01  1.13283E-01  1.13380E-01  1.13473E-01
   1.13562E-01  1.13645E-01  1.13723E-01  1.13796E-01  1.13862E-01  1.13922E-01  1.13975E-01  1.14021E-01  1.14060E-01  1.14093E-01
   1.14119E-01  1.14140E-01  1.14154E-01  1.14163E-01  1.14167E-01  1.14166E-01  1.14162E-01  1.14154E-01  1.14145E-01  1.14133E-01
   1.14121E-01  1.14108E-01  1.14096E-01  1.14084E-01  1.14075E-01  1.14067E-01  1.14063E-01  1.14062E-01  1.14064E-01  1.14071E-01
   1.14083E-01  1.14099E-01  1.14121E-01  1.14149E-01  1.14182E-01  1.14221E-01  1.14266E-01  1.14318E-01  1.14375E-01  1.14439E-01
   1.14510E-01  1.14588E-01  1.14672E-01  1.14763E-01  1.14861E-01  1.14966E-01  1.15078E-01  1.15197E-01  1.15323E-01  1.15457E-01
   1.15599E-01  1.15748E-01  1.15905E-01  1.16071E-01  1.16244E-01  1.16425E-01  1.16615E-01  1.16813E-01  1.17020E-01  1.17235E-01
   1.17459E-01  1.17692E-01  1.17934E-01  1.18184E-01  1.18444E-01  1.18712E-01  1.18989E-01  1.19275E-01  1.19569E-01  1.19872E-01
   1.20183E-01  1.20502E-01  1.20829E-01  1.21163E-01  1.21504E-01  1.21852E-01  1.22206E-01  1.22567E-01  1.22932E-01  1.23302E-01
   1.23677E-01  1.24055E-01  1.24437E-01  1.24820E-01  1.25206E-01  1.25593E-01  1.25981E-01  1.26369E-01  1.26757E-01  1.27144E-01
   1.27530E-01  1.27916E-01  1.28302E-01  1.28689E-01  1.29077E-01  1.29471E-01  1.29871E-01  1.30282E-01  1.30708E-01  1.31154E-01
   1.31623E-01  1.32118E-01  1.32642E-01  1.33192E-01  1.33764E-01  1.34346E-01  1.34923E-01  1.35477E-01  1.35985E-01  1.36423E-01
   1.36768E-01  1.37002E-01  1.37113E-01  1.37096E-01  1.36955E-01  1.36702E-01  1.36356E-01  1.35938E-01  1.35474E-01  1.34984E-01
   1.34490E-01  1.34006E-01  1.33542E-01  1.33104E-01  1.32694E-01  1.32311E-01  1.31951E-01  1.31611E-01  1.31286E-01  1.30972E-01
   1.30664E-01  1.30361E-01  1.30061E-01  1.29761E-01  1.29461E-01  1.29161E-01  1.28859E-01  1.28558E-01  1.28256E-01  1.27954E-01
   1.27654E-01  1.27354E-01  1.27057E-01  1.26763E-01  1.26472E-01  1.26185E-01  1.25903E-01  1.25626E-01  1.25355E-01  1.25091E-01
   1.24833E-01  1.24583E-01  1.24341E-01  1.24107E-01  1.23882E-01  1.23665E-01  1.23458E-01  1.23260E-01  1.23071E-01  1.22893E-01
   1.22724E-01  1.22564E-01  1.22415E-01  1.22276E-01  1.22146E-01  1.22026E-01  1.21916E-01  1.21815E-01  1.21724E-01  1.21641E-01
   1.21568E-01  1.21503E-01  1.21447E-01  1.21399E-01  1.21358E-01  1.21326E-01  1.21301E-01  1.21283E-01  1.21272E-01  1.21268E-01
   1.21270E-01  1.21278E-01  1.21293E-01  1.21314E-01  1.21341E-01  1.21374E-01  1.21413E-01  1.21459E-01  1.21510E-01  1.21568E-01
   1.21633E-01  1.21702E-01  1.21777E-01  1.21857E-01  1.21939E-01  1.22021E-01  1.22103E-01  1.22181E-01  1.22253E-01  1.22317E-01
   1.22369E-01  1.22407E-01  1.22432E-01  1.22441E-01  1.22435E-01  1.22416E-01  1.22384E-01  1.22341E-01  1.22291E-01  1.22235E-01
   1.22177E-01  1.22117E-01  1.22058E-01  1.22000E-01  1.21946E-01  1.21895E-01  1.21847E-01  1.21804E-01  1.21763E-01  1.21726E-01
   1.21691E-01  1.21659E-01  1.21630E-01  1.21603E-01  1.21577E-01  1.21554E-01  1.21532E-01  1.21512E-01  1.21494E-01  1.21477E-01
   1.21463E-01  1.21450E-01  1.21439E-01  1.21430E-01  1.21423E-01  1.21419E-01  1.21417E-01  1.21417E-01  1.21419E-01  1.21424E-01
   1.21432E-01  1.21443E-01  1.21456E-01  1.21472E-01  1.21491E-01  1.21513E-01  1.21539E-01  1.21567E-01  1.21599E-01  1.21635E-01
   1.21674E-01  1.21716E-01  1.21762E-01  1.21812E-01  1.21866E-01  1.21924E-01  1.21986E-01  1.22053E-01  1.22124E-01  1.22199E-01
   1.22279E-01  1.22364E-01  1.22454E-01  1.22549E-01  1.22649E-01  1.22755E-01  1.22866E-01  1.22983E-01  1.23107E-01  1.23236E-01
   1.23372E-01  1.23515E-01  1.23665E-01  1.23822E-01  1.23986E-01  1.24159E-01  1.24339E-01  1.24528E-01  1.24725E-01  1.24932E-01
   1.25148E-01  1.25375E-01  1.25612E-01  1.25860E-01  1.26120E-01  1.26393E-01  1.26679E-01  1.26980E-01  1.27297E-01  1.27632E-01
   1.27985E-01  1.28360E-01  1.28758E-01  1.29182E-01  1.29634E-01  1.30119E-01  1.30639E-01  1.31196E-01  1.31794E-01  1.32435E-01
   1.33118E-01  1.33842E-01  1.34604E-01  1.35398E-01  1.36215E-01  1.37042E-01  1.37867E-01  1.38674E-01  1.39448E-01  1.40172E-01
   1.40835E-01  1.41427E-01  1.41944E-01  1.42384E-01  1.42754E-01  1.43062E-01  1.43320E-01  1.43544E-01  1.43749E-01  1.43951E-01
   1.44164E-01  1.44398E-01  1.44663E-01  1.44965E-01  1.45307E-01  1.45690E-01  1.46114E-01  1.46575E-01  1.47071E-01  1.47598E-01
   1.48151E-01  1.48727E-01  1.49322E-01  1.49932E-01  1.50552E-01  1.51181E-01  1.51814E-01  1.52449E-01  1.53083E-01  1.53713E-01
   1.54337E-01  1.54952E-01  1.55555E-01  1.56146E-01  1.56720E-01  1.57277E-01  1.57815E-01  1.58331E-01  1.58823E-01  1.59290E-01
   1.59731E-01  1.60144E-01  1.60527E-01  1.60880E-01  1.61202E-01  1.61491E-01  1.61748E-01  1.61971E-01  1.62161E-01  1.62317E-01
   1.62439E-01  1.62528E-01  1.62584E-01  1.62608E-01  1.62601E-01  1.62563E-01  1.62496E-01  1.62401E-01  1.62279E-01  1.62133E-01
   1.61963E-01  1.61773E-01  1.61563E-01  1.61335E-01  1.61093E-01  1.60837E-01  1.60571E-01  1.60297E-01  1.60016E-01  1.59731E-01
   1.59445E-01  1.59160E-01  1.58878E-01  1.58601E-01  1.58332E-01  1.58072E-01  1.57824E-01  1.57590E-01  1.57371E-01  1.57170E-01
   1.56989E-01  1.56829E-01  1.56691E-01  1.56578E-01  1.56491E-01  1.56431E-01  1.56399E-01  1.56397E-01  1.56425E-01  1.56485E-01
   1.56577E-01  1.56703E-01  1.56863E-01  1.57058E-01  1.57288E-01  1.57553E-01  1.57854E-01  1.58192E-01  1.58566E-01  1.58976E-01
   1.59423E-01  1.59907E-01  1.60426E-01  1.60982E-01  1.61574E-01  1.62201E-01  1.62863E-01  1.63559E-01  1.64289E-01  1.65053E-01
