 LCModel (Version 6.3-1B) Copyright: S.W. Provencher.          Ref.: Magn. Reson. Med. 30:672-679 (1993).                
 SVS_97
 Data of: Center for Clinical Spectroscopy, Brigham and Women’s Hospital, Harvard Medical School
 28-May-2015  14:21
 38 lines in following concentration table = NCONC+1
    Conc.  %SD /Cr+PCr  Metabolite                                         
 2.88E-02  88%   0.115 2HG                                                 
 1.38E-02  64% 5.5E-02 Ala                                                 
 1.86E-02  94% 7.4E-02 Asp                                                 
    0.000 999%   0.000 Cr                                                  
 4.05E-02  32%   0.162 GABA                                                
    0.115   2%   0.457 GPC                                                 
 1.06E-02 177% 4.2E-02 Glc                                                 
 2.95E-02  53%   0.118 Gln                                                 
 1.46E-02  49% 5.8E-02 Glth                                                
 3.27E-02  55%   0.131 Glu                                                 
    0.297   5%   1.186 Ins                                                 
    0.112  22%   0.446 Lac                                                 
 7.97E-02  11%   0.318 NAA                                                 
 6.83E-02  13%   0.273 NAAG                                                
    0.000 999%   0.000 PCh                                                 
    0.251   3%   1.000 PCr                                                 
 3.45E-03  88% 1.4E-02 Scyllo                                              
    0.000 999%   0.000 Tau                                                 
 6.78E-02  16%   0.271 -CrCH2                                              
 2.05E-02  40% 8.2E-02 Gua                                                 
    0.115   2%   0.457 GPC+PCh                                             
    0.148   6%   0.591 NAA+NAAG                                            
    0.251   3%   1.000 Cr+PCr                                              
 6.22E-02  40%   0.248 Glu+Gln                                             
    0.000 999%   0.000 Lip13a                                              
    0.200  22%   0.798 Lip13b                                              
 3.42E-02  60%   0.137 Lip09                                               
 8.84E-02  33%   0.353 MM09                                                
 3.26E-02  42%   0.130 Lip20                                               
    0.154  31%   0.615 MM20                                                
 2.89E-02  49%   0.115 MM12                                                
    0.129  35%   0.513 MM14                                                
 6.83E-02  37%   0.272 MM17                                                
    0.200  22%   0.798 Lip13a+Lip13b                                       
    0.357  17%   1.426 MM14+Lip13a+Lip13b+MM12                             
    0.123  23%   0.489 MM09+Lip09                                          
    0.187  26%   0.745 MM20+Lip20                                          
   6 lines in following misc. output table
  FWHM = 0.043 ppm    S/N =  13                                            
  Data shift = 0.000 ppm                                                   
  Ph:  21 deg      12.2 deg/ppm                                            
  alphaB,S = 4.8E-02,   3.7E+01                                            
   28 spline knots.   Ns = 7(1)                                            
  (11) 1 infls.   (12) 2 extrs.                                            
  799 points on ppm-axis = NY
      4.000000     3.995243     3.990486     3.985729     3.980972     3.976215     3.971458     3.966702     3.961945     3.957188
      3.952431     3.947674     3.942917     3.938160     3.933403     3.928646     3.923889     3.919132     3.914375     3.909618
      3.904861     3.900105     3.895348     3.890591     3.885834     3.881077     3.876320     3.871563     3.866806     3.862049
      3.857292     3.852535     3.847778     3.843021     3.838264     3.833508     3.828751     3.823994     3.819237     3.814480
      3.809723     3.804966     3.800209     3.795452     3.790695     3.785938     3.781181     3.776424     3.771667     3.766911
      3.762154     3.757397     3.752640     3.747883     3.743126     3.738369     3.733612     3.728855     3.724098     3.719341
      3.714584     3.709827     3.705070     3.700314     3.695557     3.690800     3.686043     3.681286     3.676529     3.671772
      3.667015     3.662258     3.657501     3.652744     3.647987     3.643230     3.638474     3.633717     3.628960     3.624203
      3.619446     3.614689     3.609932     3.605175     3.600418     3.595661     3.590904     3.586147     3.581390     3.576633
      3.571877     3.567120     3.562363     3.557606     3.552849     3.548092     3.543335     3.538578     3.533821     3.529064
      3.524307     3.519550     3.514793     3.510036     3.505280     3.500523     3.495766     3.491009     3.486252     3.481495
      3.476738     3.471981     3.467224     3.462467     3.457710     3.452953     3.448196     3.443439     3.438683     3.433926
      3.429169     3.424412     3.419655     3.414898     3.410141     3.405384     3.400627     3.395870     3.391113     3.386356
      3.381599     3.376842     3.372086     3.367329     3.362572     3.357815     3.353058     3.348301     3.343544     3.338787
      3.334030     3.329273     3.324516     3.319759     3.315002     3.310246     3.305489     3.300732     3.295975     3.291218
      3.286461     3.281704     3.276947     3.272190     3.267433     3.262676     3.257919     3.253162     3.248405     3.243649
      3.238892     3.234135     3.229378     3.224621     3.219864     3.215107     3.210350     3.205593     3.200836     3.196079
      3.191322     3.186565     3.181808     3.177052     3.172295     3.167538     3.162781     3.158024     3.153267     3.148510
      3.143753     3.138996     3.134239     3.129482     3.124725     3.119968     3.115211     3.110455     3.105698     3.100941
      3.096184     3.091427     3.086670     3.081913     3.077156     3.072399     3.067642     3.062885     3.058128     3.053371
      3.048615     3.043858     3.039101     3.034344     3.029587     3.024830     3.020073     3.015316     3.010559     3.005802
      3.001045     2.996288     2.991531     2.986774     2.982018     2.977261     2.972504     2.967747     2.962990     2.958233
      2.953476     2.948719     2.943962     2.939205     2.934448     2.929691     2.924934     2.920177     2.915421     2.910664
      2.905907     2.901150     2.896393     2.891636     2.886879     2.882122     2.877365     2.872608     2.867851     2.863094
      2.858337     2.853580     2.848824     2.844067     2.839310     2.834553     2.829796     2.825039     2.820282     2.815525
      2.810768     2.806011     2.801254     2.796497     2.791740     2.786983     2.782227     2.777470     2.772713     2.767956
      2.763199     2.758442     2.753685     2.748928     2.744171     2.739414     2.734657     2.729900     2.725143     2.720387
      2.715630     2.710873     2.706116     2.701359     2.696602     2.691845     2.687088     2.682331     2.677574     2.672817
      2.668060     2.663303     2.658546     2.653790     2.649033     2.644276     2.639519     2.634762     2.630005     2.625248
      2.620491     2.615734     2.610977     2.606220     2.601463     2.596706     2.591949     2.587193     2.582436     2.577679
      2.572922     2.568165     2.563408     2.558651     2.553894     2.549137     2.544380     2.539623     2.534866     2.530109
      2.525352     2.520596     2.515839     2.511082     2.506325     2.501568     2.496811     2.492054     2.487297     2.482540
      2.477783     2.473026     2.468269     2.463512     2.458755     2.453999     2.449242     2.444485     2.439728     2.434971
      2.430214     2.425457     2.420700     2.415943     2.411186     2.406429     2.401672     2.396915     2.392159     2.387402
      2.382645     2.377888     2.373131     2.368374     2.363617     2.358860     2.354103     2.349346     2.344589     2.339832
      2.335075     2.330318     2.325562     2.320805     2.316048     2.311291     2.306534     2.301777     2.297020     2.292263
      2.287506     2.282749     2.277992     2.273235     2.268478     2.263721     2.258965     2.254208     2.249451     2.244694
      2.239937     2.235180     2.230423     2.225666     2.220909     2.216152     2.211395     2.206638     2.201881     2.197124
      2.192368     2.187611     2.182854     2.178097     2.173340     2.168583     2.163826     2.159069     2.154312     2.149555
      2.144798     2.140041     2.135284     2.130527     2.125771     2.121014     2.116257     2.111500     2.106743     2.101986
      2.097229     2.092472     2.087715     2.082958     2.078201     2.073444     2.068687     2.063931     2.059174     2.054417
      2.049660     2.044903     2.040146     2.035389     2.030632     2.025875     2.021118     2.016361     2.011604     2.006847
      2.002090     1.997334     1.992577     1.987820     1.983063     1.978306     1.973549     1.968792     1.964035     1.959278
      1.954521     1.949764     1.945007     1.940250     1.935493     1.930737     1.925980     1.921223     1.916466     1.911709
      1.906952     1.902195     1.897438     1.892681     1.887924     1.883167     1.878410     1.873653     1.868896     1.864140
      1.859383     1.854626     1.849869     1.845112     1.840355     1.835598     1.830841     1.826084     1.821327     1.816570
      1.811813     1.807056     1.802299     1.797543     1.792786     1.788029     1.783272     1.778515     1.773758     1.769001
      1.764244     1.759487     1.754730     1.749973     1.745216     1.740459     1.735703     1.730946     1.726189     1.721432
      1.716675     1.711918     1.707161     1.702404     1.697647     1.692890     1.688133     1.683376     1.678619     1.673862
      1.669106     1.664349     1.659592     1.654835     1.650078     1.645321     1.640564     1.635807     1.631050     1.626293
      1.621536     1.616779     1.612022     1.607265     1.602509     1.597752     1.592995     1.588238     1.583481     1.578724
      1.573967     1.569210     1.564453     1.559696     1.554939     1.550182     1.545425     1.540668     1.535912     1.531155
      1.526398     1.521641     1.516884     1.512127     1.507370     1.502613     1.497856     1.493099     1.488342     1.483585
      1.478828     1.474072     1.469315     1.464558     1.459801     1.455044     1.450287     1.445530     1.440773     1.436016
      1.431259     1.426502     1.421745     1.416988     1.412231     1.407475     1.402718     1.397961     1.393204     1.388447
      1.383690     1.378933     1.374176     1.369419     1.364662     1.359905     1.355148     1.350391     1.345634     1.340878
      1.336121     1.331364     1.326607     1.321850     1.317093     1.312336     1.307579     1.302822     1.298065     1.293308
      1.288551     1.283794     1.279037     1.274281     1.269524     1.264767     1.260010     1.255253     1.250496     1.245739
      1.240982     1.236225     1.231468     1.226711     1.221954     1.217197     1.212440     1.207684     1.202927     1.198170
      1.193413     1.188656     1.183899     1.179142     1.174385     1.169628     1.164871     1.160114     1.155357     1.150600
      1.145844     1.141087     1.136330     1.131573     1.126816     1.122059     1.117302     1.112545     1.107788     1.103031
      1.098274     1.093517     1.088760     1.084003     1.079247     1.074490     1.069733     1.064976     1.060219     1.055462
      1.050705     1.045948     1.041191     1.036434     1.031677     1.026920     1.022163     1.017406     1.012650     1.007893
      1.003136     0.998379     0.993622     0.988865     0.984108     0.979351     0.974594     0.969838     0.965081     0.960324
      0.955567     0.950810     0.946053     0.941296     0.936540     0.931783     0.927026     0.922269     0.917512     0.912755
      0.907998     0.903241     0.898485     0.893728     0.888971     0.884214     0.879457     0.874700     0.869943     0.865187
      0.860430     0.855673     0.850916     0.846159     0.841402     0.836645     0.831888     0.827132     0.822375     0.817618
      0.812861     0.808104     0.803347     0.798590     0.793833     0.789077     0.784320     0.779563     0.774806     0.770049
      0.765292     0.760535     0.755779     0.751022     0.746265     0.741508     0.736751     0.731994     0.727237     0.722480
      0.717724     0.712967     0.708210     0.703453     0.698696     0.693939     0.689182     0.684426     0.679669     0.674912
      0.670155     0.665398     0.660641     0.655884     0.651127     0.646371     0.641614     0.636857     0.632100     0.627343
      0.622586     0.617829     0.613073     0.608316     0.603559     0.598802     0.594045     0.589288     0.584531     0.579774
      0.575018     0.570261     0.565504     0.560747     0.555990     0.551233     0.546476     0.541719     0.536963     0.532206
      0.527449     0.522692     0.517935     0.513178     0.508421     0.503665     0.498908     0.494151     0.489394     0.484637
      0.479880     0.475123     0.470366     0.465610     0.460853     0.456096     0.451339     0.446582     0.441825     0.437068
      0.432312     0.427555     0.422798     0.418041     0.413284     0.408527     0.403770     0.399013     0.394257     0.389500
      0.384743     0.379986     0.375229     0.370472     0.365715     0.360959     0.356202     0.351445     0.346688     0.341931
      0.337174     0.332417     0.327660     0.322904     0.318147     0.313390     0.308633     0.303876     0.299119     0.294362
      0.289605     0.284849     0.280092     0.275335     0.270578     0.265821     0.261064     0.256307     0.251551     0.246794
      0.242037     0.237280     0.232523     0.227766     0.223009     0.218252     0.213495     0.208739     0.203982
 NY phased data points follow
   5.80668E+00  4.50303E+00  4.48657E+00  2.41605E+00  1.95097E+00  2.64218E+00  5.69330E-01  4.03086E-01  3.67604E+00  2.44769E+00
  -3.40440E-01  2.21548E+00 -5.88230E-01 -2.55086E+00  5.18557E-01  2.68904E+00  8.83338E+00  9.74871E+00  1.17535E+01  1.55219E+01
   1.50523E+01  1.67114E+01  1.95088E+01  2.18407E+01  2.21169E+01  2.00681E+01  1.53782E+01  1.40968E+01  1.33991E+01  1.11079E+01
   1.07859E+01  9.15099E+00  5.53350E+00  3.18126E+00  1.81970E+00 -1.89525E+00 -1.74789E-01  7.92227E-01 -1.21779E-01 -3.16463E+00
  -9.53582E-01 -1.02957E+00 -1.25129E+00  1.87017E+00  4.02736E+00  6.28761E-01  3.38172E+00  5.18907E+00  4.07183E+00  3.01027E+00
   5.14029E+00  4.18624E+00  2.14938E+00  4.40399E+00  6.89131E+00  6.79086E+00  5.29674E+00  5.68636E+00  2.70836E+00  1.11690E+00
  -1.48988E+00 -2.94966E+00 -6.51046E-01  4.19810E-01  2.77782E+00  4.35585E+00  4.47869E+00  2.43524E+00  4.11727E+00  1.83826E+00
   5.74375E+00  7.17740E+00  5.75193E+00  8.50996E+00  7.50508E+00  9.09388E+00  9.08987E+00  1.17655E+01  1.22928E+01  1.04602E+01
   9.22176E+00  4.36566E+00  5.00513E+00  4.11516E+00  6.27780E+00  5.69015E+00  6.09520E+00  6.57467E+00  1.11130E+01  9.75990E+00
   1.18381E+01  1.15264E+01  1.21101E+01  1.18703E+01  1.28096E+01  1.29925E+01  1.32330E+01  9.85959E+00  9.43223E+00  4.52461E+00
   5.43023E+00  3.03003E+00 -1.08297E-01 -2.96286E+00 -2.76999E+00 -1.76494E+00 -3.03451E+00 -4.29896E+00 -3.54823E+00 -5.23357E+00
  -3.51974E+00  1.50178E+00 -1.95006E+00 -3.55208E+00  1.52697E+00 -8.49719E-01  1.80240E+00 -7.37354E-01 -1.75173E+00 -1.67283E-01
   2.68385E-01 -2.49370E+00 -2.60017E+00  2.78311E+00  7.40305E-01  1.51028E+00  1.49234E+00  8.09059E-01  3.21811E+00  1.14147E+00
  -2.22004E+00 -2.34166E+00 -1.36955E+00 -4.75812E-01  7.25352E-01 -7.27809E-01  2.51617E+00  2.17410E+00 -1.14653E+00  3.06495E+00
   4.89762E+00  2.62936E+00  4.78543E+00  3.29153E+00  4.59547E+00  5.07456E+00  4.32694E+00  6.73934E+00  5.70322E+00  6.60442E+00
   4.37195E+00  6.61399E+00  4.73585E+00  2.02049E+00  5.50813E+00  7.56836E+00  4.39649E+00  5.13051E+00  8.01419E+00  7.03563E+00
   9.84315E+00  9.46298E+00  1.40106E+01  1.20513E+01  1.95376E+01  2.34914E+01  3.02999E+01  4.05449E+01  4.32885E+01  5.17668E+01
   5.37198E+01  5.57398E+01  5.46658E+01  5.09048E+01  4.31576E+01  3.93347E+01  2.85517E+01  2.61253E+01  1.96415E+01  1.83270E+01
   1.48835E+01  1.44038E+01  1.12392E+01  7.94294E+00  5.68278E+00  6.06390E+00  7.81634E+00  3.53782E+00  4.85302E+00  3.70973E+00
   4.64339E+00  3.97706E+00  2.21367E+00  7.25971E+00  5.56783E+00  5.13924E+00  6.01028E+00  4.20131E+00  4.98976E+00  6.92947E+00
   7.80019E+00  1.06484E+01  1.70570E+01  2.14669E+01  2.29448E+01  2.69480E+01  2.98318E+01  3.29144E+01  3.74720E+01  4.03425E+01
   4.31517E+01  3.82513E+01  3.39617E+01  3.01348E+01  2.44825E+01  2.25899E+01  1.90084E+01  1.70861E+01  1.19523E+01  1.16548E+01
   1.12428E+01  8.41785E+00  6.68554E+00  5.61407E+00  5.74909E+00  3.50142E+00  3.32207E+00  3.62265E+00  1.63593E+00  3.11630E+00
   3.50638E+00  4.98310E+00 -1.00936E-01  3.89913E+00  1.85061E+00  3.34642E+00  3.39497E+00  1.47426E+00  5.32770E-01  4.06545E+00
   3.10150E+00 -7.22632E-01  3.54089E+00  1.93135E+00 -6.95631E-01  1.59301E+00  1.92389E+00  4.03749E+00  8.96581E-01  4.52742E-01
   1.11442E+00  1.27377E+00  3.12739E+00  1.61729E+00  1.98566E+00  3.00632E+00 -8.31488E-01  1.11125E+00  7.61996E-01  2.35745E+00
  -1.92706E+00  3.15724E+00  8.67725E-01  1.96650E+00  2.69527E+00  1.78095E+00  5.36928E-01  3.69108E+00  6.12382E+00  4.76839E+00
   5.04300E+00  7.00924E-01 -2.39996E-01  2.20730E+00  2.56539E+00  3.19197E+00  1.88180E+00  4.21934E+00  3.84560E+00 -5.72461E-01
   3.61493E+00 -2.82706E-01  2.03265E+00  1.28673E+00  4.94054E+00  3.19844E+00  1.34227E+00  3.86466E-01 -6.71578E-01  1.67143E+00
  -8.86787E-01  2.40338E+00  1.15945E-01 -1.27480E+00  6.02247E-01  3.07153E+00  1.32957E+00  2.52869E+00  4.12244E+00 -7.38365E-01
   2.72589E+00  1.78102E+00 -4.10528E-01  3.65180E+00  9.42312E-01  8.42825E-01  2.69876E-01  1.88208E+00  1.69045E+00  4.53210E+00
   5.07163E+00  4.69706E-01  5.50442E+00  5.86807E+00  3.19124E+00  3.40571E+00  7.48913E-02  1.98701E+00  1.55666E+00  2.01014E+00
   1.65397E+00  2.01958E+00  5.64249E-01  1.01912E+00  1.67254E+00  2.04038E+00  3.04316E+00  2.74328E+00  4.63044E+00  4.16526E+00
   4.61482E+00  7.59047E-01  1.74153E+00  2.70391E+00  1.91241E+00  3.78800E+00  6.97194E-01  2.52250E+00  2.48352E+00  1.81406E+00
   1.08595E+00  4.08835E+00  7.86616E-01  2.53169E+00 -3.18478E-01  1.83414E+00  3.59071E+00  1.95003E+00  1.29148E+00  1.83231E+00
   3.21096E+00  9.29626E-01 -4.24493E-01  4.64557E+00  3.29673E+00  3.96963E+00  5.90232E+00  4.35568E+00  1.90216E+00  1.94677E+00
   4.81848E+00  3.24724E+00  3.07856E+00  2.48417E+00  2.91351E+00  5.69999E+00  9.52242E-01  3.45423E+00  4.34555E+00  3.87503E+00
   2.82854E+00  5.12783E+00  4.17334E+00  2.84924E+00  3.20005E+00  6.33738E+00  3.27595E+00  3.84923E+00  4.30777E+00  2.69806E+00
   2.94894E+00  2.62883E+00  2.76841E+00  2.03658E+00  7.99471E-01  1.71990E+00  6.04843E-01  1.66880E+00  2.23709E+00  7.19469E-02
   3.53625E+00 -5.95575E-01  1.91050E+00 -1.42551E+00  2.56481E+00 -1.56161E+00  1.61087E+00  7.52838E-01 -1.76854E-01  5.30158E+00
   1.64033E+00  3.65023E+00  4.18883E+00  4.07693E+00  6.59366E+00  6.17523E+00  5.88330E+00  3.69316E+00  8.22180E+00  9.22688E+00
   8.79878E+00  9.61687E+00  1.18682E+01  1.12487E+01  9.48126E+00  1.52514E+01  1.47830E+01  1.63124E+01  1.37896E+01  1.25784E+01
   1.54387E+01  1.78666E+01  1.52639E+01  1.47430E+01  1.43114E+01  1.48319E+01  1.14389E+01  1.00134E+01  1.15904E+01  7.63186E+00
   4.75340E+00  5.36116E+00  5.40526E+00  3.09945E+00  2.33608E-01  2.23632E+00 -9.71104E-01  8.59252E-01 -1.10348E+00  1.49377E+00
  -7.35002E-02 -7.57370E-01  6.48261E-01 -5.05122E-02 -7.19741E-01 -4.32919E-01  2.26716E+00  7.50069E-01 -1.26896E+00 -6.25024E-01
   1.43044E+00 -1.64752E+00  6.99557E-01 -2.16616E+00 -1.04428E+00 -2.74249E-01  8.99665E-02 -1.65360E+00 -1.21493E+00 -3.94299E+00
   1.15772E+00 -1.33811E+00 -5.84748E-01  3.38361E-01 -3.13045E+00 -2.65510E+00 -3.16273E-01 -3.56461E+00  1.01111E-01 -7.49991E-01
  -3.05420E+00 -6.66131E-02  2.06436E+00 -2.39683E-01 -3.44705E+00  2.85461E-01 -1.64596E+00 -8.16237E-01 -3.03447E+00 -2.47246E+00
   4.82319E-02 -2.65747E-01  1.16378E+00  8.55881E-01 -2.64453E-01 -1.10134E+00  3.64062E-01  3.87556E-01  2.95325E+00  1.64624E+00
   2.32987E+00  2.00282E+00  6.19013E-01  3.07550E-01 -1.06379E+00  2.84045E+00 -2.26120E+00  3.08103E+00  2.79446E+00  1.50268E+00
   6.11116E+00  2.33575E+00  8.67683E-01  2.72099E+00 -2.64889E-01 -3.34549E-01  6.15993E-01 -1.47710E+00  7.19950E-01  6.13883E-01
   9.08186E-01  3.84098E-01  2.83144E+00  3.84575E+00  1.74943E+00  9.28084E-01 -4.73793E-01  2.08255E+00 -6.56632E-02  2.46301E+00
  -4.61526E-01  2.79480E+00 -2.23584E+00  1.63677E+00  2.40134E+00  2.48607E+00  1.33574E+00  2.66807E+00  1.18052E+00  2.08701E+00
  -1.58919E+00  1.17368E+00  2.75778E+00  1.81999E+00 -2.09037E+00  2.22868E+00  1.21741E+00 -4.51298E-01  3.99516E-01 -2.52278E+00
   1.66924E+00 -1.20391E+00  2.83150E+00  1.33412E+00  3.23573E-01  7.85155E-01  2.35005E+00  3.87556E+00  1.04442E+00  2.67879E+00
   5.36433E+00  4.87606E+00  5.44054E+00  4.18923E+00  7.26663E+00  6.42394E+00  7.35479E+00  5.62917E+00  5.63175E+00  3.00942E+00
   2.29821E+00  6.05984E+00  6.29271E+00  2.98582E+00  8.06597E-01  1.41950E+00  9.70779E-01 -1.00652E+00 -2.67329E+00  8.01118E-02
  -2.06536E+00 -3.38049E+00 -9.08472E-01 -4.44160E+00 -3.34609E+00 -1.20273E+00  2.57872E+00  1.48999E+00 -1.82424E+00  1.59125E+00
   1.67069E+00  6.99242E-01  2.63605E+00 -6.90428E-01  1.60408E+00  1.97137E+00  2.53599E+00  4.65930E-01  1.11263E+00 -5.82472E-02
  -1.69880E+00 -1.77870E-01 -6.57323E-01 -5.81202E-01  1.71377E+00 -6.45468E-01 -7.66539E-02 -7.78486E-01  3.18999E-01 -1.18391E+00
   3.14173E-01  2.37593E+00  2.45677E+00 -4.55966E-01 -6.52463E-01 -4.46214E-01  5.51848E-01  1.96833E+00  1.54888E+00 -5.33030E-01
  -7.06695E-01  2.58020E+00 -8.17996E-01  1.45158E+00  7.22159E-01  1.52980E-01  7.19023E-01 -8.36623E-01 -8.22861E-01 -1.02453E-01
  -1.28870E+00  2.05676E+00  2.10456E+00  1.32324E+00  1.34847E+00  1.71243E+00 -1.64909E-01 -2.53788E-01  2.69907E-01 -3.33967E-01
   2.31793E+00  1.28111E+00  1.05395E-01  7.88948E-01 -7.83645E-01  4.70674E-01  3.70614E+00  2.09119E+00  5.98128E-01  5.65906E+00
   1.32375E+00 -5.92725E-02  9.92308E-01  3.36292E+00 -5.70641E-01  9.82717E-01  7.28550E-01  1.46490E-01  1.87820E+00  1.50446E+00
   3.65137E-01 -2.08534E+00  7.32376E-02  1.36632E+00 -2.52130E+00  1.03517E+00  2.48067E+00  7.82060E-01 -2.67996E-01  4.91574E-01
  -2.73738E+00  3.35496E-01 -6.56515E-01 -1.74184E-01 -4.54035E-01  1.09233E+00 -9.31048E-01 -3.56795E-02  2.42620E+00 -9.06982E-01
  -7.44637E-01 -1.95333E+00  3.47540E-01 -9.62824E-01  2.91058E-01  3.64229E-01 -7.23563E-01 -2.14771E+00 -1.66881E+00 -1.42503E+00
  -1.62684E+00 -1.02398E+00 -8.98337E-01 -2.01053E+00 -1.94741E+00  7.10422E-01 -9.64737E-01 -2.05414E+00 -3.09107E+00 -2.78270E+00
  -3.06314E+00  4.81451E-02 -1.06638E+00  1.66457E+00 -1.36995E+00 -2.06547E+00 -1.02571E-01 -3.67321E-01  7.73091E-01 -2.19399E+00
   1.69391E+00 -3.17725E+00 -2.19527E+00 -1.45107E+00 -6.02452E-01 -2.86402E+00 -6.70191E-01  1.12227E-01 -2.64095E-01 -1.06300E+00
  -5.08323E-01 -1.12519E+00 -2.08107E+00 -6.25069E-02 -1.64267E+00  2.67668E-01 -3.97513E+00 -5.50636E-01 -2.37569E+00 -1.07271E+00
  -2.87690E+00  4.94757E-02 -1.80813E+00 -1.68012E+00 -7.09933E-01  3.35933E-01  6.48155E-01 -1.62860E+00 -7.37755E-03 -1.66504E+00
   7.78669E-01 -3.83472E+00 -1.50333E+00 -1.45540E-01 -2.26671E+00 -1.22820E+00  1.69998E+00 -2.61311E+00 -1.31908E+00 -5.66733E-01
   4.29231E-01 -1.28114E+00 -1.44149E+00  2.73571E-01  1.44793E+00  9.56291E-01 -1.70572E+00 -1.39033E+00 -5.40340E-01 -1.07412E+00
   4.38783E-01 -2.19850E+00 -3.18105E+00  3.03393E+00 -2.86089E+00 -8.71231E-01 -2.34669E+00 -1.06449E+00 -1.75140E+00 -2.30444E+00
   8.04309E-01 -3.25566E+00 -3.54479E+00 -1.88504E+00 -2.95131E-01 -7.44773E-01 -9.31075E-01 -8.81328E-01 -6.70928E-02 -2.72551E+00
  -1.41653E+00 -3.46693E-01 -8.81451E-01  3.67729E-01 -3.73800E+00 -2.38445E+00 -3.05503E+00 -1.35887E+00  5.37617E-01 -1.75380E-01
   2.87209E+00 -1.90225E+00 -2.81067E-01  8.08327E-01  2.14249E+00  3.01577E-02 -8.72122E-01 -2.63077E+00  1.16997E+00 -2.29858E-01
   9.59166E-02 -2.20810E+00 -2.45651E+00 -4.12046E+00  8.84701E-01 -2.34932E+00  3.21235E+00  1.05284E+00 -1.95669E+00
 NY points of the fit to the data follow
   8.66745E-01  1.03875E+00  1.15483E+00  1.23318E+00  1.28752E+00  1.33046E+00  1.40468E+00  1.63180E+00  2.19269E+00  2.68112E+00
   2.41197E+00  1.41195E+00  3.29232E-01 -7.13164E-02  6.82438E-01  2.56229E+00  5.18131E+00  8.14224E+00  1.12331E+01  1.43539E+01
   1.73396E+01  1.99029E+01  2.16840E+01  2.23197E+01  2.15355E+01  1.95358E+01  1.69139E+01  1.42005E+01  1.17713E+01  9.82568E+00
   8.38106E+00  7.34911E+00  6.62013E+00  6.09437E+00  5.68865E+00  5.33382E+00  4.98117E+00  4.59792E+00  4.15479E+00  3.60844E+00
   3.06595E+00  2.79452E+00  2.84901E+00  3.08342E+00  3.32280E+00  3.48835E+00  3.61022E+00  3.75920E+00  3.95498E+00  4.14535E+00
   4.25313E+00  4.24512E+00  4.14058E+00  3.99003E+00  3.85645E+00  3.81726E+00  3.86699E+00  3.88886E+00  3.80529E+00  3.59455E+00
   3.27953E+00  2.91160E+00  2.53380E+00  2.15627E+00  1.78086E+00  1.44186E+00  1.21805E+00  1.20226E+00  1.44251E+00  1.90152E+00
   2.48128E+00  3.09394E+00  3.72400E+00  4.43440E+00  5.30262E+00  6.33965E+00  7.45364E+00  8.47926E+00  9.26198E+00  9.73973E+00
   9.94671E+00  9.95220E+00  9.79856E+00  9.48484E+00  9.00201E+00  8.38532E+00  7.73591E+00  7.20172E+00  6.93075E+00  7.02030E+00
   7.47603E+00  8.18688E+00  8.94084E+00  9.50589E+00  9.72306E+00  9.53140E+00  8.92188E+00  7.88659E+00  6.41952E+00  4.56112E+00
   2.43124E+00  2.17453E-01 -1.87378E+00 -3.66945E+00 -5.06081E+00 -6.00681E+00 -6.51770E+00 -6.62944E+00 -6.38953E+00 -5.86201E+00
  -5.13410E+00 -4.30116E+00 -3.43939E+00 -2.59296E+00 -1.78657E+00 -1.04207E+00 -3.82544E-01  1.74917E-01  6.25805E-01  9.78487E-01
   1.24815E+00  1.45074E+00  1.59854E+00  1.69885E+00  1.75598E+00  1.77625E+00  1.77019E+00  1.75032E+00  1.72679E+00  1.70638E+00
   1.69404E+00  1.69407E+00  1.70949E+00  1.74236E+00  1.79455E+00  1.87081E+00  1.98362E+00  2.15417E+00  2.40194E+00  2.73087E+00
   3.12443E+00  3.55250E+00  3.98198E+00  4.38474E+00  4.73843E+00  5.02434E+00  5.22660E+00  5.33588E+00  5.35411E+00  5.29765E+00
   5.19687E+00  5.09375E+00  5.03594E+00  5.06783E+00  5.21981E+00  5.50223E+00  5.90670E+00  6.41516E+00  7.01140E+00  7.69480E+00
   8.50576E+00  9.59755E+00  1.13611E+01  1.44099E+01  1.91718E+01  2.54451E+01  3.24441E+01  3.92234E+01  4.50617E+01  4.95531E+01
   5.24563E+01  5.35352E+01  5.25715E+01  4.95242E+01  4.46724E+01  3.86190E+01  3.21633E+01  2.61021E+01  2.09979E+01  1.70264E+01
   1.40556E+01  1.18537E+01  1.02146E+01  8.98617E+00  8.06066E+00  7.36108E+00  6.83139E+00  6.43163E+00  6.13387E+00  5.91956E+00
   5.77778E+00  5.70482E+00  5.70158E+00  5.76953E+00  5.90746E+00  6.11274E+00  6.38646E+00  6.74084E+00  7.20995E+00  7.88007E+00
   8.95405E+00  1.07864E+01  1.37204E+01  1.77819E+01  2.25706E+01  2.74547E+01  3.18525E+01  3.53821E+01  3.78276E+01  3.90331E+01
   3.88590E+01  3.72465E+01  3.43135E+01  3.03919E+01  2.59755E+01  2.16062E+01  1.77281E+01  1.45610E+01  1.20898E+01  1.01799E+01
   8.68650E+00  7.49554E+00  6.52662E+00  5.72638E+00  5.06067E+00  4.50793E+00  4.05406E+00  3.68816E+00  3.39885E+00  3.17300E+00
   2.99684E+00  2.85848E+00  2.75017E+00  2.66840E+00  2.61104E+00  2.57412E+00  2.55086E+00  2.53369E+00  2.51644E+00  2.49550E+00
   2.46985E+00  2.44043E+00  2.40855E+00  2.37504E+00  2.34025E+00  2.30458E+00  2.26852E+00  2.23277E+00  2.19775E+00  2.16332E+00
   2.12841E+00  2.09143E+00  2.05047E+00  2.00302E+00  1.94439E+00  1.86721E+00  1.76460E+00  1.63682E+00  1.49435E+00  1.35414E+00
   1.23278E+00  1.14299E+00  1.09455E+00  1.09671E+00  1.15789E+00  1.28096E+00  1.45750E+00  1.66779E+00  1.88642E+00  2.08935E+00
   2.25848E+00  2.38356E+00  2.46126E+00  2.49305E+00  2.48365E+00  2.44106E+00  2.37596E+00  2.29986E+00  2.22158E+00  2.14404E+00
   2.06342E+00  1.97114E+00  1.85597E+00  1.70848E+00  1.52948E+00  1.33473E+00  1.14971E+00  1.00082E+00  9.10424E-01  8.98353E-01
   9.82613E-01  1.17159E+00  1.45395E+00  1.79903E+00  2.16761E+00  2.52402E+00  2.84203E+00  3.10562E+00  3.30894E+00  3.45355E+00
   3.54057E+00  3.56786E+00  3.53589E+00  3.45386E+00  3.33834E+00  3.20523E+00  3.06231E+00  2.91016E+00  2.74931E+00  2.58652E+00
   2.43548E+00  2.31350E+00  2.23696E+00  2.21633E+00  2.24971E+00  2.31733E+00  2.38446E+00  2.41569E+00  2.38995E+00  2.30564E+00
   2.17494E+00  2.01391E+00  1.83625E+00  1.65463E+00  1.48587E+00  1.35263E+00  1.27736E+00  1.27236E+00  1.33371E+00  1.44319E+00
   1.57569E+00  1.70850E+00  1.82744E+00  1.92703E+00  2.00641E+00  2.06457E+00  2.09678E+00  2.09569E+00  2.05683E+00  1.98218E+00
   1.87753E+00  1.74701E+00  1.59207E+00  1.41894E+00  1.24626E+00  1.10288E+00  1.01670E+00  1.00601E+00  1.07736E+00  1.22703E+00
   1.44274E+00  1.70607E+00  1.99592E+00  2.29264E+00  2.58018E+00  2.84491E+00  3.07325E+00  3.25287E+00  3.37796E+00  3.45247E+00
   3.48669E+00  3.49139E+00  3.47468E+00  3.44292E+00  3.40335E+00  3.36569E+00  3.34092E+00  3.33951E+00  3.36827E+00  3.42558E+00
   3.49837E+00  3.56530E+00  3.60510E+00  3.60457E+00  3.56095E+00  3.48005E+00  3.37271E+00  3.25043E+00  3.12140E+00  2.98992E+00
